;RAW4.00
[RawHeader]
Date=08/20/2026
EstimatedTotalTime=-6.39228e+10
FurtherDQLReading=0
HardwareIndicator=65519
MeasuredTotalTime=-6.39228e+10
MeasurementFlag=1
NumberOfMeasuredRanges=1
NumberOfRanges=1
Time=10:14:29

[VarInfo]
Type=USER
Flags=0
Value=Lab Manager

[VarInfo]
Type=SAMPLEID
Flags=0
Value=COMMANDER Sample ID

[VarInfo]
Type=COMMENT
Flags=0
Value=

[VarInfo]
Type=UTF
Flags=0
Value=

[VarInfo]
Type=CREATOR
Flags=0
Value=BrmlToV4Converter

[VarInfo]
Type=CREATOR_VERSION
Flags=0
Value=8.6.4.0

[VarInfo]
Type=SUBSTRATE
Flags=0
Value=Si (no database)

[VarInfo]
Type=LAYER
Flags=0
Value=Si (no database)

[HardwareConfiguration]
AbsorptionFactor=9999
ActivateAbsorber=0
Alpha1=1.5406
Alpha2=1.54439
AlphaAverage=1.5418
AlphaRatio=0.5
Analyzer=0
Anode=Cu
AntiScatteringSlit=80
BeamOpticsFlags=0
Beta=1.39222
BetaRelativeIntensity=0
DeactivateAbsorber=0
DetectorSlit=9999
DivergenceSlit=0.2
GoniometerControl=0
GoniometerDiameter=774.843
GoniometerModel=256
GoniometerStage=4
Monochromator=0
NearSampleSlit=9999
PrimarySollerSlit=9999
SampleChanger=0
SecondSollerSlit=9999
SynchronousAxis=0
ThinFilmAttachment=9999
WaveUnit=A

[VisualEditDQL]
A=0.5431
AlignedHKL=+00/+00/+00
AlignmentIncidence=2
Alpha=90
B=0.5431
Beta=90
C=0.5431
CrystalSystem=0
Gamma=90
LatticeA=0.5431
LatticeAlpha=90
LatticeB=0.5431
LatticeBeta=90
LatticeC=0.5431
LatticeCrystalSystem=0
LatticeGamma=90
Lattice_mno=+00/+00/+01
Lattice_pqr=+01/+01/+00
MappingID1=0
MappingID2=0
MappingID3=0
MappingSet1=0
MappingSet2=0
MappingSet3=0
MappingStart1=0
MappingStart2=0
MappingStart3=0
MappingStop1=0
MappingStop2=0
MappingStop3=0
MeasurementType=5
ReciprocalSpaceUnit=0
mno=+00/+00/+01
pqr=+01/+01/+00

[DriveAlignment]
AlignFlag=2
Delta=1.5
DriveName=Theta
Offset=0
TheoreticalPosition=0

[DriveAlignment]
AlignFlag=2
Delta=1
DriveName=TwoTheta
Offset=0
TheoreticalPosition=0

[DriveAlignment]
AlignFlag=2
Delta=2
DriveName=Phi
Offset=0
TheoreticalPosition=0

[DriveAlignment]
AlignFlag=2
Delta=1
DriveName=Alpha_I
Offset=0
TheoreticalPosition=0

[DriveAlignment]
AlignFlag=2
Delta=0.75
DriveName=Chi
Offset=0
TheoreticalPosition=0

[DriveAlignment]
AlignFlag=2
Delta=1
DriveName=BeamTranslation
Offset=0
TheoreticalPosition=0

[DriveAlignment]
AlignFlag=2
Delta=10
DriveName=X
Offset=0
TheoreticalPosition=0

[DriveAlignment]
AlignFlag=2
Delta=10
DriveName=Y
Offset=0
TheoreticalPosition=0

[DriveAlignment]
AlignFlag=2
Delta=1
DriveName=Z
Offset=0
TheoreticalPosition=0

[RangeHeader]
ActuallyUsedLambda=1.5406
AdditionalDetectorMask=0
DataRecordLength=4
DelayTime=0
DisplayPlaneNumber=0
EstimatedScanTime=564
ExtraParametersMask=0
GeneratorCurrent=40
GeneratorVoltage=40
Increment=0.005
Increment3=0
NumberOfCompletedData=1881
NumberOfCounts=1
NumberOfDetectors=1
NumberOfDrives=10
NumberOfEncoderDrives=0
NumberOfMeasuredData=1881
NumberOfVaryingParameters=0
RangeStartTime=0
RotationSpeed=0
ScanMode=1
ScanType=Unlocked Coupled
SimulatedMeasConditions=0
SlitChangerIn=0
SmootingWidth=0
Start=0.6
Steps=1881
SynchronousRotation=0
Time=0.3

[VarInfo]
Type=AXIS_OFFSET_THETA
Flags=0
Value=0.0021

[Detector]
AmplifierGain=0
ConstantDeadTime=0
DetectorFlags=2056
DetectorName=
DetectorNumber=1
DetectorType=0
Discriminator1LowerLevel=0
Discriminator1WindowWidth=0
Discriminator2LowerLevel=0
Discriminator2WindowWidth=0
HighVoltage=0
PileUpTime=0
PulseShaping=0
TTLDetectorName=Eiger2R_500K

[Drive]
DriveFlags=1
DriveName=2Theta
DriveNumber=2
DriveOffset=0
OffsetIndex=0
OscillationAmplitude=0
OscillationSpeed=0
StartPosition=0.6

[Drive]
DriveFlags=1
DriveName=Theta
DriveNumber=1
DriveOffset=0
OffsetIndex=0
OscillationAmplitude=0
OscillationSpeed=0
StartPosition=0.3021

[Drive]
DriveFlags=1
DriveName=Alpha_i
DriveNumber=14
DriveOffset=0
OffsetIndex=0
OscillationAmplitude=0
OscillationSpeed=0
StartPosition=-0

[Drive]
DriveFlags=1
DriveName=Chi
DriveNumber=4
DriveOffset=0
OffsetIndex=0
OscillationAmplitude=0
OscillationSpeed=0
StartPosition=-0

[Drive]
DriveFlags=1
DriveName=Phi
DriveNumber=3
DriveOffset=0
OffsetIndex=0
OscillationAmplitude=0
OscillationSpeed=0
StartPosition=0

[Drive]
DriveFlags=0
DriveName=BeamTranslation
DriveNumber=15
DriveOffset=0
OffsetIndex=0
OscillationAmplitude=0
OscillationSpeed=0
StartPosition=-0

[Drive]
DriveFlags=0
DriveName=TrackDistance
DriveNumber=16
DriveOffset=0
OffsetIndex=0
OscillationAmplitude=0
OscillationSpeed=0
StartPosition=300.243

[Drive]
DriveFlags=0
DriveName=X-Drive
DriveNumber=5
DriveOffset=0
OffsetIndex=0
OscillationAmplitude=0
OscillationSpeed=0
StartPosition=-0

[Drive]
DriveFlags=0
DriveName=Y-Drive
DriveNumber=6
DriveOffset=0
OffsetIndex=0
OscillationAmplitude=0
OscillationSpeed=0
StartPosition=-0

[Drive]
DriveFlags=0
DriveName=Z-Drive
DriveNumber=7
DriveOffset=0
OffsetIndex=0
OscillationAmplitude=0
OscillationSpeed=0
StartPosition=0.2855

[HRXRD]
2ThetaOffset=0
AlignmentSet=0
AnalyzerBeamPath=0
AnalyzerOptic=0
ChiMiddle=0
ChiOriginal=9999
CoupleFactor=0
DiffractionSetup=0
HRXRDScanType=1
HeidenhainPeak=9999
IncidenceFlag=2
LambdaDetermined=1.5406
LambdaTheory=1.5406
MonochromatorAnalyzerCombination=0
Omega1Original=9999
Omega2Original=9999
OmegaMiddle=0
OmegaOriginal=9999
PhiMiddle=0
PhiOriginal=9999
Psi=9999
QParallelMiddle=9999
QVerticalMiddle=9999
ReciprocalXIncrement=0
ReciprocalXStart=0
ReciprocalXStop=0
ReciprocalYIncrement=0
ReciprocalYStart=0
ReciprocalYStop=0
ReciprocalZIncrement=0
ReciprocalZStart=0
ReciprocalZStop=0
ScanRelativeStart=0.6
ScanRelativeStop=10
SimFF=9999
SubstrateRelated=0
TauBragg=0
TauMismatch=0
ThetaBragg=0
ThetaMiddle=0
TwoThetaMiddle=0
XMiddle=0
XOriginal=9999
YMiddle=0
YOriginal=9999
ZMiddle=0
hkl=+00/+00/+00

[Data]
     Angle,Det1Digita,
       0.6,2.63669e+07,
     0.605,2.65778e+07,
      0.61,2.66663e+07,
     0.615,2.68473e+07,
      0.62,2.69867e+07,
     0.625,2.71627e+07,
      0.63,2.72428e+07,
     0.635,2.74513e+07,
      0.64,2.7578e+07,
     0.645,2.77013e+07,
      0.65,2.77976e+07,
     0.655,2.79637e+07,
      0.66,2.80572e+07,
     0.665,2.81911e+07,
      0.67,2.82749e+07,
     0.675,2.84316e+07,
      0.68,2.84919e+07,
     0.685,2.86302e+07,
      0.69,2.86369e+07,
     0.695,2.87964e+07,
       0.7,2.8839e+07,
     0.705,2.8919e+07,
      0.71,2.89188e+07,
     0.715,2.90268e+07,
      0.72,2.90183e+07,
     0.725,2.90566e+07,
      0.73,2.90017e+07,
     0.735,2.90632e+07,
      0.74,2.90516e+07,
     0.745,2.89913e+07,
      0.75,2.88893e+07,
     0.755,2.88858e+07,
      0.76,2.87262e+07,
     0.765,2.86358e+07,
      0.77,2.84581e+07,
     0.775,2.83217e+07,
      0.78, 2.811e+07,
     0.785,2.78953e+07,
      0.79,2.75571e+07,
     0.795,2.73183e+07,
       0.8,2.69383e+07,
     0.805,2.65435e+07,
      0.81,2.60729e+07,
     0.815,2.56418e+07,
      0.82,2.50563e+07,
     0.825,2.44877e+07,
      0.83,2.37574e+07,
     0.835,2.30908e+07,
      0.84,2.22696e+07,
     0.845,2.14265e+07,
      0.85,2.04696e+07,
     0.855,1.95868e+07,
      0.86,1.85349e+07,
     0.865,1.75225e+07,
      0.87,1.64248e+07,
     0.875,1.54022e+07,
      0.88,1.43235e+07,
     0.885,1.33453e+07,
      0.89,1.23576e+07,
     0.895,1.15521e+07,
       0.9,1.08006e+07,
     0.905,1.02021e+07,
      0.91,9.72922e+06,
     0.915,9.45422e+06,
      0.92,9.31847e+06,
     0.925,9.40099e+06,
      0.93,9.61685e+06,
     0.935,1.00329e+07,
      0.94,1.0606e+07,
     0.945,1.12849e+07,
      0.95,1.20942e+07,
     0.955,1.30116e+07,
      0.96,1.39504e+07,
     0.965,1.49481e+07,
      0.97,1.59544e+07,
     0.975,1.69796e+07,
      0.98,1.79689e+07,
     0.985,1.88944e+07,
      0.99,1.97649e+07,
     0.995,2.06252e+07,
         1,2.13839e+07,
     1.005,2.20466e+07,
      1.01,2.26578e+07,
     1.015,2.3239e+07,
      1.02,2.36773e+07,
     1.025,2.41123e+07,
      1.03,2.43846e+07,
     1.035,2.46783e+07,
      1.04,2.48532e+07,
     1.045,2.49613e+07,
      1.05,2.49771e+07,
     1.055,2.50402e+07,
      1.06,2.49254e+07,
     1.065,2.48202e+07,
      1.07,2.45949e+07,
     1.075,2.43853e+07,
      1.08,2.40632e+07,
     1.085,2.37237e+07,
      1.09,2.32416e+07,
     1.095,2.28392e+07,
       1.1,2.22728e+07,
     1.105,2.17207e+07,
      1.11,2.10329e+07,
     1.115,2.03961e+07,
      1.12,1.96295e+07,
     1.125,1.88951e+07,
      1.13,1.80196e+07,
     1.135,1.71883e+07,
      1.14,1.6282e+07,
     1.145,1.53681e+07,
      1.15,1.43771e+07,
     1.155,1.34429e+07,
      1.16,1.24069e+07,
     1.165,1.14427e+07,
      1.17,1.04304e+07,
     1.175,9.45035e+06,
      1.18,8.46763e+06,
     1.185,7.55191e+06,
      1.19,6.60344e+06,
     1.195,5.77149e+06,
       1.2,4.94374e+06,
     1.205,4.19992e+06,
      1.21,3.50742e+06,
     1.215,2.91125e+06,
      1.22,2.36399e+06,
     1.225,1.9283e+06,
      1.23,1.55021e+06,
     1.235,1.27739e+06,
      1.24,1.07765e+06,
     1.245,    968571,
      1.25,    936192,
     1.255,    982299,
      1.26,1.09927e+06,
     1.265,1.27628e+06,
      1.27,1.50882e+06,
     1.275,1.79617e+06,
      1.28,2.13119e+06,
     1.285,2.48979e+06,
      1.29,2.87984e+06,
     1.295,3.29023e+06,
       1.3,3.71309e+06,
     1.305,4.1402e+06,
      1.31,4.56169e+06,
     1.315,4.99109e+06,
      1.32,5.39905e+06,
     1.325,5.79454e+06,
      1.33,6.15971e+06,
     1.335,6.51892e+06,
      1.34,6.84814e+06,
     1.345,7.13671e+06,
      1.35,7.3899e+06,
     1.355,7.64566e+06,
      1.36,7.83156e+06,
     1.365,7.99436e+06,
      1.37,8.11947e+06,
     1.375,8.24024e+06,
      1.38,8.29304e+06,
     1.385,8.33794e+06,
      1.39,8.32346e+06,
     1.395,8.31158e+06,
       1.4,8.25564e+06,
     1.405,8.17163e+06,
      1.41,8.04526e+06,
     1.415,7.92717e+06,
      1.42,7.75174e+06,
     1.425,7.5778e+06,
      1.43,7.36049e+06,
     1.435,7.15453e+06,
      1.44,6.9144e+06,
     1.445,6.67153e+06,
      1.45,6.39027e+06,
     1.455,6.14006e+06,
      1.46,5.84513e+06,
     1.465,5.56629e+06,
      1.47,5.27151e+06,
     1.475,4.98698e+06,
      1.48,4.68236e+06,
     1.485,4.39927e+06,
      1.49,4.09339e+06,
     1.495,3.81955e+06,
       1.5,3.53622e+06,
     1.505,3.26238e+06,
      1.51,2.99108e+06,
     1.515,2.74931e+06,
      1.52,2.4953e+06,
     1.525,2.26945e+06,
      1.53,2.04005e+06,
     1.535,1.83572e+06,
      1.54,1.63767e+06,
     1.545,1.45743e+06,
      1.55,1.28282e+06,
     1.555,1.13114e+06,
      1.56,    986808,
     1.565,    858317,
      1.57,    737254,
     1.575,    636076,
      1.58,    538762,
     1.585,    459342,
      1.59,    384454,
     1.595,    323923,
       1.6,    270877,
     1.605,    226077,
      1.61,    189017,
     1.615,    160156,
      1.62,    136098,
     1.625,    118572,
      1.63,    104377,
     1.635,   95923.8,
      1.64,   90263.8,
     1.645,   87458.8,
      1.65,   86870.8,
     1.655,   88858.8,
      1.66,   90937.8,
     1.665,   94614.8,
      1.67,   98864.7,
     1.675,    103222,
      1.68,    108044,
     1.685,    111942,
      1.69,    116089,
     1.695,    118743,
       1.7,    122168,
     1.705,    123877,
      1.71,    124867,
     1.715,    125901,
      1.72,    125501,
     1.725,    125330,
      1.73,    125127,
     1.735,    123796,
      1.74,    123178,
     1.745,    122389,
      1.75,    121634,
     1.755,    122501,
      1.76,    122745,
     1.765,    124044,
      1.77,    126390,
     1.775,    130626,
      1.78,    134723,
     1.785,    142145,
      1.79,    148726,
     1.795,    158633,
       1.8,    169956,
     1.805,    182136,
      1.81,    196319,
     1.815,    214192,
      1.82,    230647,
     1.825,    252297,
      1.83,    272337,
     1.835,    296902,
      1.84,    320472,
     1.845,    347734,
      1.85,    375259,
     1.855,    404501,
      1.86,    432977,
     1.865,    463404,
      1.87,    493997,
     1.875,    526970,
      1.88,    557775,
     1.885,    590605,
      1.89,    620684,
     1.895,    651288,
       1.9,    683979,
     1.905,    710876,
      1.91,    736284,
     1.915,    768161,
      1.92,    791476,
     1.925,    814564,
      1.93,    833549,
     1.935,    856612,
      1.94,    872207,
     1.945,    888845,
      1.95,    896139,
     1.955,    911440,
      1.96,    916715,
     1.965,    921239,
      1.97,    919501,
     1.975,    921933,
      1.98,    917043,
     1.985,    911435,
      1.99,    900814,
     1.995,    891699,
         2,    875998,
     2.005,    860300,
      2.01,    838534,
     2.015,    818135,
      2.02,    794202,
     2.025,    769213,
      2.03,    741823,
     2.035,    714348,
      2.04,    683301,
     2.045,    652636,
      2.05,    617201,
     2.055,    586691,
      2.06,    551591,
     2.065,    518289,
      2.07,    482186,
     2.075,    449590,
      2.08,    414703,
     2.085,    381136,
      2.09,    347428,
     2.095,    316553,
       2.1,    284637,
     2.105,    255606,
      2.11,    226253,
     2.115,    199473,
      2.12,    173575,
     2.125,    151760,
      2.13,    129329,
     2.135,    110891,
      2.14,   93230.6,
     2.145,   78472.7,
      2.15,   64929.8,
     2.155,   55301.8,
      2.16,   47540.9,
     2.165,   41440.9,
      2.17,   37241.9,
     2.175,   36209.9,
      2.18,   37044.9,
     2.185,   40262.9,
      2.19,   45458.8,
     2.195,   52916.8,
       2.2,   62743.8,
     2.205,   73439.8,
      2.21,   85641.7,
     2.215,    100754,
      2.22,    116834,
     2.225,    133180,
      2.23,    151381,
     2.235,    173099,
      2.24,    193083,
     2.245,    214139,
      2.25,    235129,
     2.255,    258947,
      2.26,    281342,
     2.265,    302517,
      2.27,    324096,
     2.275,    349321,
      2.28,    371032,
     2.285,    392813,
      2.29,    413581,
     2.295,    435295,
       2.3,    453699,
     2.305,    472672,
      2.31,    491293,
     2.315,    507984,
      2.32,    522234,
     2.325,    539263,
      2.33,    549462,
     2.335,    560770,
      2.34,    571951,
     2.345,    581739,
      2.35,    586136,
     2.355,    594217,
      2.36,    597157,
     2.365,    601393,
      2.37,    601209,
     2.375,    603136,
      2.38,    599671,
     2.385,    599241,
      2.39,    593048,
     2.395,    590286,
       2.4,    583298,
     2.405,    575228,
      2.41,    565663,
     2.415,    557019,
      2.42,    544479,
     2.425,    535719,
      2.43,    521903,
     2.435,    510634,
      2.44,    495946,
     2.445,    482513,
      2.45,    466061,
     2.455,    453096,
      2.46,    437935,
     2.465,    422567,
      2.47,    406375,
     2.475,    391593,
      2.48,    375211,
     2.485,    362846,
      2.49,    344269,
     2.495,    330566,
       2.5,    315392,
     2.505,    302718,
      2.51,    286848,
     2.515,    274441,
      2.52,    259414,
     2.525,    249303,
      2.53,    235911,
     2.535,    224647,
      2.54,    212580,
     2.545,    202516,
      2.55,    193309,
     2.555,    183873,
      2.56,    174671,
     2.565,    166173,
      2.57,    157392,
     2.575,    151208,
      2.58,    143836,
     2.585,    137474,
      2.59,    132012,
     2.595,    126924,
       2.6,    121294,
     2.605,    116570,
      2.61,    112193,
     2.615,    107880,
      2.62,    104216,
     2.625,    100931,
      2.63,   97512.8,
     2.635,   94530.8,
      2.64,   91846.8,
     2.645,   89021.8,
      2.65,   87030.8,
     2.655,   84185.8,
      2.66,   81672.8,
     2.665,   79429.8,
      2.67,   77155.8,
     2.675,   74653.8,
      2.68,   71947.8,
     2.685,   70416.8,
      2.69,   67138.8,
     2.695,   65773.8,
       2.7,   62444.8,
     2.705,   60495.8,
      2.71,   57607.8,
     2.715,   55358.8,
      2.72,   52280.8,
     2.725,   49687.9,
      2.73,   46809.9,
     2.735,   44480.9,
      2.74,   41500.9,
     2.745,   39007.9,
      2.75,   35705.9,
     2.755,   33458.9,
      2.76,   30705.9,
     2.765,   28142.9,
      2.77,   25635.9,
     2.775,   23064.9,
      2.78,   21028.9,
     2.785,   18629.9,
      2.79,     16960,
     2.795,     14916,
       2.8,     13341,
     2.805,     11967,
      2.81,     10497,
     2.815,   9699.97,
      2.82,   8872.98,
     2.825,   8257.98,
      2.83,   8149.98,
     2.835,   8188.98,
      2.84,   8431.98,
     2.845,   9137.97,
      2.85,   9969.97,
     2.855,     11203,
      2.86,     12834,
     2.865,     14548,
      2.87,     16556,
     2.875,   18865.9,
      2.88,   21543.9,
     2.885,   24207.9,
      2.89,   27140.9,
     2.895,   30965.9,
       2.9,   34405.9,
     2.905,   38122.9,
      2.91,   41715.9,
     2.915,   45840.8,
      2.92,   50290.8,
     2.925,   54163.8,
      2.93,   58960.8,
     2.935,   63583.8,
      2.94,   67795.8,
     2.945,   72277.8,
      2.95,   76765.8,
     2.955,   81766.8,
      2.96,   85518.8,
     2.965,   90591.8,
      2.97,   94046.8,
     2.975,   98488.7,
      2.98,    101971,
     2.985,    105999,
      2.99,    109575,
     2.995,    112751,
         3,    116477,
     3.005,    118986,
      3.01,    121572,
     3.015,    124335,
      3.02,    126045,
     3.025,    127987,
      3.03,    129010,
     3.035,    130946,
      3.04,    131451,
     3.045,    132464,
      3.05,    132025,
     3.055,    132655,
      3.06,    131765,
     3.065,    131288,
      3.07,    129637,
     3.075,    128759,
      3.08,    126950,
     3.085,    125396,
      3.09,    123247,
     3.095,    121778,
       3.1,    118389,
     3.105,    116176,
      3.11,    112328,
     3.115,    109904,
      3.12,    106188,
     3.125,    103770,
      3.13,   99519.7,
     3.135,   96787.7,
      3.14,   92837.7,
     3.145,   89132.8,
      3.15,   84163.8,
     3.155,   81154.8,
      3.16,   77887.8,
     3.165,   74161.8,
      3.17,   69877.8,
     3.175,   66822.8,
      3.18,   63356.8,
     3.185,   60215.8,
      3.19,   56722.8,
     3.195,   53616.8,
       3.2,   50797.8,
     3.205,   47274.8,
      3.21,   44992.8,
     3.215,   42587.9,
      3.22,   39616.9,
     3.225,   38106.9,
      3.23,   35926.9,
     3.235,   34368.9,
      3.24,   32795.9,
     3.245,   31382.9,
      3.25,   30100.9,
     3.255,   29088.9,
      3.26,   28213.9,
     3.265,   28037.9,
      3.27,   27541.9,
     3.275,   27610.9,
      3.28,   27310.9,
     3.285,   27759.9,
      3.29,   27763.9,
     3.295,   28641.9,
       3.3,   28966.9,
     3.305,   29519.9,
      3.31,   29947.9,
     3.315,   31467.9,
      3.32,   32297.9,
     3.325,   33724.9,
      3.33,   34656.9,
     3.335,   36258.9,
      3.34,   36896.9,
     3.345,   37940.9,
      3.35,   39556.9,
     3.355,   40654.9,
      3.36,   41805.9,
     3.365,   42950.9,
      3.37,   43852.9,
     3.375,   45217.9,
      3.38,   45757.9,
     3.385,   47421.9,
      3.39,   47554.9,
     3.395,   48748.9,
       3.4,   48772.9,
     3.405,   49920.9,
      3.41,   49839.8,
     3.415,   50380.9,
      3.42,   50308.8,
     3.425,   50787.8,
      3.43,   50401.8,
     3.435,   50212.9,
      3.44,   50245.8,
     3.445,   50163.8,
      3.45,   49160.8,
     3.455,   48391.8,
      3.46,   47996.8,
     3.465,   46925.8,
      3.47,   46054.9,
     3.475,   45078.9,
      3.48,   43581.9,
     3.485,   42629.9,
      3.49,   41579.9,
     3.495,   40521.9,
       3.5,   38716.9,
     3.505,   37580.9,
      3.51,   36062.9,
     3.515,   34692.9,
      3.52,   33049.9,
     3.525,   31537.9,
      3.53,   29950.9,
     3.535,   28352.9,
      3.54,   27074.9,
     3.545,   25473.9,
      3.55,   23692.9,
     3.555,   22340.9,
      3.56,   20811.9,
     3.565,   19623.9,
      3.57,   18335.9,
     3.575,   16886.9,
      3.58,     15588,
     3.585,     14460,
      3.59,     13555,
     3.595,     12343,
       3.6,     11380,
     3.605,     10654,
      3.61,   9700.96,
     3.615,   8994.97,
      3.62,   8409.97,
     3.625,   7847.97,
      3.63,   7388.98,
     3.635,   6884.98,
      3.64,   6708.98,
     3.645,   6220.98,
      3.65,   6188.98,
     3.655,   6144.98,
      3.66,   6059.98,
     3.665,   5950.98,
      3.67,   6032.98,
     3.675,   6060.98,
      3.68,   6214.98,
     3.685,   6291.98,
      3.69,   6493.98,
     3.695,   6723.98,
       3.7,   7037.98,
     3.705,   7134.97,
      3.71,   7257.97,
     3.715,   7725.97,
      3.72,   8096.97,
     3.725,   8200.97,
      3.73,   8374.97,
     3.735,   8783.97,
      3.74,   8933.97,
     3.745,   9053.97,
      3.75,   9129.97,
     3.755,   9453.97,
      3.76,   9463.97,
     3.765,   9661.97,
      3.77,   9536.96,
     3.775,   9804.97,
      3.78,   9640.97,
     3.785,   9633.97,
      3.79,   9480.97,
     3.795,   9429.97,
       3.8,   9140.97,
     3.805,   9132.97,
      3.81,   8645.97,
     3.815,   8447.97,
      3.82,   8117.97,
     3.825,   7898.98,
      3.83,   7434.97,
     3.835,   6970.98,
      3.84,   6719.98,
     3.845,   6303.98,
      3.85,   5850.98,
     3.855,   5398.98,
      3.86,   4960.98,
     3.865,   4642.98,
      3.87,   4211.98,
     3.875,   3878.98,
      3.88,   3368.99,
     3.885,   3053.99,
      3.89,   2735.99,
     3.895,   2498.99,
       3.9,   2171.99,
     3.905,   1975.99,
      3.91,   1773.99,
     3.915,   1664.99,
      3.92,   1589.99,
     3.925,      1513,
      3.93,      1549,
     3.935,   1659.99,
      3.94,   1702.99,
     3.945,   1943.99,
      3.95,   2184.99,
     3.955,   2508.99,
      3.96,   2820.99,
     3.965,   3323.99,
      3.97,   3894.99,
     3.975,   4478.98,
      3.98,   5010.98,
     3.985,   5747.97,
      3.99,   6400.97,
     3.995,   7277.97,
         4,   8176.97,
     4.005,   9031.97,
      4.01,   9785.97,
     4.015,     10962,
      4.02,   12023.9,
     4.025,   12923.9,
      4.03,   13884.9,
     4.035,   15231.9,
      4.04,   16496.9,
     4.045,   17703.9,
      4.05,   18659.9,
     4.055,   19867.9,
      4.06,   21254.9,
     4.065,   21990.9,
      4.07,   23525.9,
     4.075,   24822.9,
      4.08,   25792.9,
     4.085,   27033.9,
      4.09,   27800.9,
     4.095,   28831.9,
       4.1,   30191.9,
     4.105,   31124.9,
      4.11,   31889.9,
     4.115,   32639.9,
      4.12,   33471.9,
     4.125,   34343.9,
      4.13,   34814.9,
     4.135,   35985.9,
      4.14,   36062.9,
     4.145,   37059.9,
      4.15,   37060.9,
     4.155,   37477.9,
      4.16,   37811.9,
     4.165,   38168.9,
      4.17,   38256.9,
     4.175,   38550.9,
      4.18,   38193.9,
     4.185,   38529.9,
      4.19,   38121.9,
     4.195,   37956.9,
       4.2,   37989.9,
     4.205,   37766.9,
      4.21,   36683.9,
     4.215,   36526.9,
      4.22,   35868.9,
     4.225,   35178.9,
      4.23,   34568.9,
     4.235,   34360.9,
      4.24,   33436.9,
     4.245,   32573.9,
      4.25,   31982.9,
     4.255,   31215.9,
      4.26,   30075.9,
     4.265,   29206.9,
      4.27,   28307.9,
     4.275,   27711.9,
      4.28,   26692.9,
     4.285,   26155.9,
      4.29,   24534.9,
     4.295,   23986.9,
       4.3,   22927.9,
     4.305,   22110.9,
      4.31,   20737.9,
     4.315,   20593.9,
      4.32,   19550.9,
     4.325,   18592.9,
      4.33,   17729.9,
     4.335,   17026.9,
      4.34,     16328,
     4.345,     15692,
      4.35,     14755,
     4.355,     14132,
      4.36,     13620,
     4.365,     13100,
      4.37,     12324,
     4.375,     11994,
      4.38,     11195,
     4.385,     10984,
      4.39,     10717,
     4.395,     10375,
       4.4,   9952.96,
     4.405,   9782.96,
      4.41,   9390.97,
     4.415,   9377.97,
      4.42,   9230.97,
     4.425,   9150.97,
      4.43,   8820.97,
     4.435,   8943.97,
      4.44,   8749.97,
     4.445,   8873.97,
      4.45,   8777.97,
     4.455,   8783.97,
      4.46,   8845.97,
     4.465,   9010.97,
      4.47,   8925.97,
     4.475,   9265.97,
      4.48,   9459.97,
     4.485,   9444.97,
      4.49,   9309.97,
     4.495,   9542.97,
       4.5,   9567.97,
     4.505,   9911.96,
      4.51,   9835.96,
     4.515,   9981.96,
      4.52,     10161,
     4.525,     10209,
      4.53,     10204,
     4.535,     10415,
      4.54,     10279,
     4.545,     10264,
      4.55,     10414,
     4.555,     10581,
      4.56,     10389,
     4.565,     10312,
      4.57,     10095,
     4.575,     10096,
      4.58,     10020,
     4.585,     10085,
      4.59,   9909.96,
     4.595,   9765.96,
       4.6,   9778.96,
     4.605,   9336.97,
      4.61,   9162.97,
     4.615,   9194.97,
      4.62,   8719.97,
     4.625,   8690.97,
      4.63,   8234.97,
     4.635,   8052.97,
      4.64,   7869.98,
     4.645,   7420.97,
      4.65,   7205.98,
     4.655,   7055.98,
      4.66,   6724.98,
     4.665,   6559.97,
      4.67,   6097.98,
     4.675,   5955.98,
      4.68,   5448.98,
     4.685,   5379.98,
      4.69,   4921.98,
     4.695,   4698.98,
       4.7,   4442.98,
     4.705,   4039.98,
      4.71,   3819.99,
     4.715,   3616.99,
      4.72,   3239.99,
     4.725,   3047.99,
      4.73,   2704.99,
     4.735,   2520.99,
      4.74,   2246.99,
     4.745,   2126.99,
      4.75,   1969.99,
     4.755,   1738.99,
      4.76,   1580.99,
     4.765,   1465.99,
      4.77,   1265.99,
     4.775,   1212.99,
      4.78,      1028,
     4.785,   926.996,
      4.79,   863.996,
     4.795,   758.996,
       4.8,   668.997,
     4.805,   657.998,
      4.81,   599.998,
     4.815,   562.998,
      4.82,   496.998,
     4.825,   495.998,
      4.83,   500.998,
     4.835,   444.998,
      4.84,   456.998,
     4.845,   509.998,
      4.85,   511.998,
     4.855,   550.998,
      4.86,   496.998,
     4.865,   520.998,
      4.87,   567.998,
     4.875,   592.998,
      4.88,   574.998,
     4.885,   661.997,
      4.89,   679.997,
     4.895,   709.997,
       4.9,   730.997,
     4.905,   770.997,
      4.91,   783.997,
     4.915,   805.997,
      4.92,   809.997,
     4.925,   865.997,
      4.93,   859.997,
     4.935,   855.997,
      4.94,   896.996,
     4.945,   907.997,
      4.95,   903.997,
     4.955,   906.996,
      4.96,   925.996,
     4.965,   852.996,
      4.97,   916.996,
     4.975,   857.997,
      4.98,   857.997,
     4.985,   870.997,
      4.99,   795.997,
     4.995,   787.997,
         5,   822.997,
     5.005,   794.997,
      5.01,   752.997,
     5.015,   738.997,
      5.02,   777.997,
     5.025,   683.997,
      5.03,   695.997,
     5.035,   746.997,
      5.04,   783.997,
     5.045,   793.997,
      5.05,   779.997,
     5.055,   813.997,
      5.06,   777.997,
     5.065,   829.997,
      5.07,   845.997,
     5.075,   879.997,
      5.08,   942.997,
     5.085,      1030,
      5.09,      1112,
     5.095,      1175,
       5.1,      1220,
     5.105,   1314.99,
      5.11,   1420.99,
     5.115,   1562.99,
      5.12,   1593.99,
     5.125,   1726.99,
      5.13,   1947.99,
     5.135,   2033.99,
      5.14,   2170.99,
     5.145,   2315.99,
      5.15,   2442.99,
     5.155,   2621.99,
      5.16,   2726.99,
     5.165,   2973.99,
      5.17,   3019.99,
     5.175,   3300.99,
      5.18,   3500.99,
     5.185,   3691.99,
      5.19,   3835.99,
     5.195,   4074.99,
       5.2,   4239.99,
     5.205,   4480.98,
      5.21,   4542.98,
     5.215,   4749.98,
      5.22,   4837.98,
     5.225,   5131.98,
      5.23,   5224.98,
     5.235,   5492.98,
      5.24,   5553.98,
     5.245,   5812.98,
      5.25,   5744.98,
     5.255,   6154.98,
      5.26,   6203.98,
     5.265,   6383.98,
      5.27,   6411.98,
     5.275,   6360.98,
      5.28,   6506.98,
     5.285,   6540.98,
      5.29,   6822.98,
     5.295,   6759.98,
       5.3,   6934.98,
     5.305,   6923.98,
      5.31,   6987.97,
     5.315,   6953.98,
      5.32,   7109.98,
     5.325,   7101.97,
      5.33,   7032.97,
     5.335,   7042.98,
      5.34,   6949.98,
     5.345,   7062.98,
      5.35,   6955.98,
     5.355,   6915.98,
      5.36,   7020.98,
     5.365,   6914.97,
      5.37,   6896.98,
     5.375,   6671.98,
      5.38,   6545.98,
     5.385,   6389.98,
      5.39,   6342.98,
     5.395,   6427.98,
       5.4,   6042.98,
     5.405,   5958.98,
      5.41,   5887.98,
     5.415,   5851.98,
      5.42,   5612.98,
     5.425,   5486.98,
      5.43,   5547.98,
     5.435,   5320.98,
      5.44,   5203.98,
     5.445,   5004.98,
      5.45,   4917.98,
     5.455,   4862.98,
      5.46,   4771.98,
     5.465,   4536.98,
      5.47,   4369.99,
     5.475,   4253.99,
      5.48,   4170.98,
     5.485,   4122.99,
      5.49,   3921.99,
     5.495,   3999.99,
       5.5,   3789.99,
     5.505,   3761.99,
      5.51,   3618.99,
     5.515,   3596.99,
      5.52,   3484.99,
     5.525,   3480.99,
      5.53,   3395.99,
     5.535,   3270.99,
      5.54,   3292.99,
     5.545,   3157.99,
      5.55,   3154.99,
     5.555,   3144.99,
      5.56,   3226.99,
     5.565,   3071.99,
      5.57,   3014.99,
     5.575,   2963.99,
      5.58,   3096.99,
     5.585,   3104.99,
      5.59,   3038.99,
     5.595,   3027.99,
       5.6,   3008.99,
     5.605,   3053.99,
      5.61,   3025.99,
     5.615,   3141.99,
      5.62,   3107.99,
     5.625,   3072.99,
      5.63,   3136.99,
     5.635,   3086.99,
      5.64,   3141.99,
     5.645,   3176.99,
      5.65,   3176.99,
     5.655,   3245.99,
      5.66,   3155.99,
     5.665,   3243.99,
      5.67,   3269.99,
     5.675,   3289.99,
      5.68,   3340.99,
     5.685,   3255.99,
      5.69,   3273.99,
     5.695,   3227.99,
       5.7,   3194.99,
     5.705,   3329.99,
      5.71,   3264.99,
     5.715,   3171.99,
      5.72,   3270.99,
     5.725,   3178.99,
      5.73,   3223.99,
     5.735,   3065.99,
      5.74,   3098.99,
     5.745,   3132.99,
      5.75,   3038.99,
     5.755,   2912.99,
      5.76,   2927.99,
     5.765,   2923.99,
      5.77,   2820.99,
     5.775,   2824.99,
      5.78,   2800.99,
     5.785,   2631.99,
      5.79,   2641.99,
     5.795,   2659.99,
       5.8,   2500.99,
     5.805,   2493.99,
      5.81,   2378.99,
     5.815,   2299.99,
      5.82,   2192.99,
     5.825,   2229.99,
      5.83,   2091.99,
     5.835,   2001.99,
      5.84,   1907.99,
     5.845,   1957.99,
      5.85,   1762.99,
     5.855,   1767.99,
      5.86,   1621.99,
     5.865,   1496.99,
      5.87,   1505.99,
     5.875,   1504.99,
      5.88,   1425.99,
     5.885,      1300,
      5.89,      1169,
     5.895,      1107,
       5.9,      1144,
     5.905,   976.997,
      5.91,   969.996,
     5.915,   920.996,
      5.92,   900.997,
     5.925,   826.997,
      5.93,   710.997,
     5.935,   680.997,
      5.94,   722.997,
     5.945,   639.997,
      5.95,   559.998,
     5.955,   505.998,
      5.96,   487.998,
     5.965,   447.998,
      5.97,   443.998,
     5.975,   431.998,
      5.98,   338.998,
     5.985,   331.998,
      5.99,   291.999,
     5.995,   319.999,
         6,   262.999,
     6.005,   215.999,
      6.01,   210.999,
     6.015,   203.999,
      6.02,   189.999,
     6.025,   184.999,
      6.03,   163.999,
     6.035,   197.999,
      6.04,   166.999,
     6.045,   133.999,
      6.05,   132.999,
     6.055,   162.999,
      6.06,   138.999,
     6.065,   126.999,
      6.07,   127.999,
     6.075,   144.999,
      6.08,   121.999,
     6.085,   130.999,
      6.09,   118.999,
     6.095,   148.999,
       6.1,   144.999,
     6.105,   143.999,
      6.11,   132.999,
     6.115,   113.999,
      6.12,   141.999,
     6.125,   145.999,
      6.13,   172.999,
     6.135,   152.999,
      6.14,   135.999,
     6.145,   153.999,
      6.15,   154.999,
     6.155,   150.999,
      6.16,   169.999,
     6.165,   163.999,
      6.17,   178.999,
     6.175,   184.999,
      6.18,   165.999,
     6.185,   179.999,
      6.19,   186.999,
     6.195,   206.999,
       6.2,   200.999,
     6.205,   197.999,
      6.21,   215.999,
     6.215,   221.999,
      6.22,   232.999,
     6.225,   237.999,
      6.23,   235.999,
     6.235,   282.999,
      6.24,   277.999,
     6.245,   323.999,
      6.25,   290.999,
     6.255,   303.999,
      6.26,   300.999,
     6.265,   322.999,
      6.27,   334.999,
     6.275,   351.999,
      6.28,   387.999,
     6.285,   398.998,
      6.29,   388.998,
     6.295,   419.998,
       6.3,   472.998,
     6.305,   461.998,
      6.31,   482.998,
     6.315,   511.998,
      6.32,   486.998,
     6.325,   565.998,
      6.33,   514.998,
     6.335,   540.998,
      6.34,   589.998,
     6.345,   617.998,
      6.35,   655.997,
     6.355,   625.998,
      6.36,   649.997,
     6.365,   632.998,
      6.37,   679.997,
     6.375,   684.997,
      6.38,   745.997,
     6.385,   778.997,
      6.39,   812.997,
     6.395,   806.997,
       6.4,   778.997,
     6.405,   822.997,
      6.41,   832.997,
     6.415,   888.997,
      6.42,   883.997,
     6.425,   913.997,
      6.43,   922.997,
     6.435,   991.996,
      6.44,   952.997,
     6.445,   961.996,
      6.45,      1008,
     6.455,   959.996,
      6.46,   967.996,
     6.465,   955.997,
      6.47,      1033,
     6.475,      1048,
      6.48,      1028,
     6.485,      1046,
      6.49,      1023,
     6.495,   974.996,
       6.5,      1062,
     6.505,      1027,
      6.51,      1002,
     6.515,      1029,
      6.52,      1029,
     6.525,      1042,
      6.53,      1027,
     6.535,      1093,
      6.54,   979.996,
     6.545,      1025,
      6.55,      1100,
     6.555,      1026,
      6.56,      1008,
     6.565,      1013,
      6.57,      1044,
     6.575,   984.997,
      6.58,   988.996,
     6.585,      1001,
      6.59,   995.997,
     6.595,   949.996,
       6.6,   972.996,
     6.605,   950.997,
      6.61,      1010,
     6.615,   959.997,
      6.62,   971.997,
     6.625,   920.997,
      6.63,   930.997,
     6.635,   950.997,
      6.64,   923.997,
     6.645,   930.996,
      6.65,   933.996,
     6.655,   948.997,
      6.66,   900.997,
     6.665,   926.997,
      6.67,   894.997,
     6.675,   962.996,
      6.68,   890.997,
     6.685,   933.997,
      6.69,   883.997,
     6.695,   861.997,
       6.7,   883.996,
     6.705,   845.997,
      6.71,   895.997,
     6.715,   869.997,
      6.72,   818.997,
     6.725,   906.996,
      6.73,   919.997,
     6.735,   804.997,
      6.74,   939.997,
     6.745,   873.997,
      6.75,   871.997,
     6.755,   873.997,
      6.76,   849.997,
     6.765,   857.997,
      6.77,   853.997,
     6.775,   845.997,
      6.78,   861.997,
     6.785,   821.997,
      6.79,   814.997,
     6.795,   860.997,
       6.8,   839.997,
     6.805,   817.997,
      6.81,   887.997,
     6.815,   819.997,
      6.82,   792.997,
     6.825,   856.997,
      6.83,   745.997,
     6.835,   799.997,
      6.84,   782.997,
     6.845,   806.997,
      6.85,   810.997,
     6.855,   778.997,
      6.86,   771.997,
     6.865,   714.997,
      6.87,   764.997,
     6.875,   728.997,
      6.88,   701.997,
     6.885,   734.997,
      6.89,   751.997,
     6.895,   700.997,
       6.9,   671.997,
     6.905,   681.997,
      6.91,   640.997,
     6.915,   639.998,
      6.92,   639.998,
     6.925,   626.998,
      6.93,   599.998,
     6.935,   633.998,
      6.94,   601.998,
     6.945,   567.998,
      6.95,   563.998,
     6.955,   570.998,
      6.96,   526.998,
     6.965,   535.998,
      6.97,   485.998,
     6.975,   463.998,
      6.98,   437.998,
     6.985,   470.998,
      6.99,   487.998,
     6.995,   424.998,
         7,   401.998,
     7.005,   418.998,
      7.01,   390.998,
     7.015,   365.999,
      7.02,   374.998,
     7.025,   343.999,
      7.03,   326.999,
     7.035,   314.999,
      7.04,   307.998,
     7.045,   302.999,
      7.05,   290.999,
     7.055,   273.999,
      7.06,   250.999,
     7.065,   224.999,
      7.07,   225.999,
     7.075,   241.999,
      7.08,   192.999,
     7.085,   201.999,
      7.09,   191.999,
     7.095,   201.999,
       7.1,   173.999,
     7.105,   135.999,
      7.11,   131.999,
     7.115,   154.999,
      7.12,   152.999,
     7.125,   128.999,
      7.13,   129.999,
     7.135,   98.9993,
      7.14,   126.999,
     7.145,   79.9994,
      7.15,   87.9994,
     7.155,   86.9994,
      7.16,   68.9995,
     7.165,   95.9993,
      7.17,   72.9995,
     7.175,   62.9995,
      7.18,   79.9994,
     7.185,   66.9995,
      7.19,   51.9996,
     7.195,   69.9995,
       7.2,   65.9995,
     7.205,   43.9997,
      7.21,   45.9997,
     7.215,   46.9997,
      7.22,   50.9996,
     7.225,   42.9997,
      7.23,   48.9996,
     7.235,   42.9997,
      7.24,   43.9997,
     7.245,   41.9997,
      7.25,   45.9997,
     7.255,   30.9998,
      7.26,   45.9997,
     7.265,   37.9997,
      7.27,   41.9997,
     7.275,   28.9998,
      7.28,   42.9997,
     7.285,   27.9998,
      7.29,   51.9996,
     7.295,   48.9996,
       7.3,   31.9998,
     7.305,   38.9997,
      7.31,   36.9997,
     7.315,   39.9997,
      7.32,   35.9997,
     7.325,   43.9997,
      7.33,   48.9996,
     7.335,   47.9996,
      7.34,   45.9997,
     7.345,   52.9996,
      7.35,   41.9997,
     7.355,   43.9997,
      7.36,   48.9996,
     7.365,   53.9996,
      7.37,   52.9996,
     7.375,   56.9996,
      7.38,   60.9995,
     7.385,   50.9996,
      7.39,   49.9996,
     7.395,   69.9995,
       7.4,   67.9995,
     7.405,   69.9995,
      7.41,   55.9996,
     7.415,   53.9996,
      7.42,   83.9994,
     7.425,   65.9995,
      7.43,   72.9995,
     7.435,   80.9994,
      7.44,   69.9995,
     7.445,   77.9994,
      7.45,   84.9994,
     7.455,   85.9994,
      7.46,   86.9994,
     7.465,   103.999,
      7.47,   93.9993,
     7.475,   99.9993,
      7.48,   82.9994,
     7.485,   98.9993,
      7.49,   114.999,
     7.495,   93.9993,
       7.5,   99.9993,
     7.505,   123.999,
      7.51,   103.999,
     7.515,   115.999,
      7.52,   109.999,
     7.525,   115.999,
      7.53,   122.999,
     7.535,   123.999,
      7.54,   129.999,
     7.545,   134.999,
      7.55,   142.999,
     7.555,   131.999,
      7.56,   150.999,
     7.565,   137.999,
      7.57,   135.999,
     7.575,   175.999,
      7.58,   142.999,
     7.585,   172.999,
      7.59,   194.999,
     7.595,   194.999,
       7.6,   170.999,
     7.605,   188.999,
      7.61,   179.999,
     7.615,   186.999,
      7.62,   185.999,
     7.625,   174.999,
      7.63,   203.999,
     7.635,   177.999,
      7.64,   194.999,
     7.645,   210.999,
      7.65,   226.999,
     7.655,   217.999,
      7.66,   219.999,
     7.665,   244.999,
      7.67,   215.999,
     7.675,   203.999,
      7.68,   216.999,
     7.685,   257.999,
      7.69,   251.999,
     7.695,   225.999,
       7.7,   232.999,
     7.705,   250.999,
      7.71,   241.999,
     7.715,   257.999,
      7.72,   251.999,
     7.725,   259.999,
      7.73,   259.999,
     7.735,   252.999,
      7.74,   254.999,
     7.745,   247.999,
      7.75,   255.999,
     7.755,   245.999,
      7.76,   247.999,
     7.765,   269.999,
      7.77,   233.999,
     7.775,   238.999,
      7.78,   232.999,
     7.785,   265.999,
      7.79,   257.999,
     7.795,   269.999,
       7.8,   247.999,
     7.805,   228.999,
      7.81,   247.999,
     7.815,   261.999,
      7.82,   236.999,
     7.825,   235.999,
      7.83,   256.999,
     7.835,   231.999,
      7.84,   277.999,
     7.845,   236.999,
      7.85,   233.999,
     7.855,   231.999,
      7.86,   239.999,
     7.865,   255.999,
      7.87,   235.999,
     7.875,   230.999,
      7.88,   233.999,
     7.885,   247.999,
      7.89,   231.999,
     7.895,   215.999,
       7.9,   221.999,
     7.905,   242.999,
      7.91,   209.999,
     7.915,   225.999,
      7.92,   226.999,
     7.925,   252.999,
      7.93,   203.999,
     7.935,   230.999,
      7.94,   219.999,
     7.945,   175.999,
      7.95,   197.999,
     7.955,   170.999,
      7.96,   201.999,
     7.965,   207.999,
      7.97,   150.999,
     7.975,   187.999,
      7.98,   168.999,
     7.985,   177.999,
      7.99,   191.999,
     7.995,   196.999,
         8,   192.999,
     8.005,   192.999,
      8.01,   168.999,
     8.015,   166.999,
      8.02,   190.999,
     8.025,   201.999,
      8.03,   163.999,
     8.035,   169.999,
      8.04,   158.999,
     8.045,   168.999,
      8.05,   129.999,
     8.055,   160.999,
      8.06,   129.999,
     8.065,   130.999,
      8.07,   171.999,
     8.075,   144.999,
      8.08,   164.999,
     8.085,   128.999,
      8.09,   140.999,
     8.095,   120.999,
       8.1,   123.999,
     8.105,   134.999,
      8.11,   130.999,
     8.115,   144.999,
      8.12,   125.999,
     8.125,   122.999,
      8.13,   121.999,
     8.135,   124.999,
      8.14,   101.999,
     8.145,   102.999,
      8.15,   113.999,
     8.155,   103.999,
      8.16,   99.9993,
     8.165,   105.999,
      8.17,   103.999,
     8.175,   114.999,
      8.18,   81.9994,
     8.185,   84.9994,
      8.19,   87.9994,
     8.195,   70.9995,
       8.2,   88.9993,
     8.205,   88.9993,
      8.21,   72.9995,
     8.215,   71.9995,
      8.22,   77.9994,
     8.225,   73.9995,
      8.23,   61.9995,
     8.235,   68.9995,
      8.24,   50.9996,
     8.245,   46.9997,
      8.25,   66.9995,
     8.255,   64.9995,
      8.26,   57.9996,
     8.265,   55.9996,
      8.27,   49.9996,
     8.275,   51.9996,
      8.28,   35.9997,
     8.285,   54.9996,
      8.29,   48.9996,
     8.295,   42.9997,
       8.3,   39.9997,
     8.305,   40.9997,
      8.31,   45.9997,
     8.315,   35.9997,
      8.32,   28.9998,
     8.325,   32.9998,
      8.33,   35.9997,
     8.335,   32.9998,
      8.34,   24.9998,
     8.345,   26.9998,
      8.35,   26.9998,
     8.355,   29.9998,
      8.36,   18.9999,
     8.365,   25.9998,
      8.37,   33.9998,
     8.375,   24.9998,
      8.38,   26.9998,
     8.385,   21.9998,
      8.39,   23.9998,
     8.395,   20.9999,
       8.4,   21.9998,
     8.405,   26.9998,
      8.41,   31.9998,
     8.415,   25.9998,
      8.42,   21.9998,
     8.425,   22.9998,
      8.43,   20.9999,
     8.435,   16.9999,
      8.44,   23.9998,
     8.445,   22.9998,
      8.45,   13.9999,
     8.455,   16.9999,
      8.46,   19.9999,
     8.465,   24.9998,
      8.47,   24.9998,
     8.475,   16.9999,
      8.48,   27.9998,
     8.485,   15.9999,
      8.49,   15.9999,
     8.495,   18.9999,
       8.5,   37.9997,
     8.505,   24.9998,
      8.51,   22.9998,
     8.515,   26.9998,
      8.52,   26.9998,
     8.525,   20.9999,
      8.53,   29.9998,
     8.535,   31.9998,
      8.54,   21.9998,
     8.545,   25.9998,
      8.55,   22.9998,
     8.555,   24.9998,
      8.56,   28.9998,
     8.565,   26.9998,
      8.57,   27.9998,
     8.575,   25.9998,
      8.58,   26.9998,
     8.585,   29.9998,
      8.59,   28.9998,
     8.595,   32.9998,
       8.6,   43.9997,
     8.605,   23.9998,
      8.61,   27.9998,
     8.615,   40.9997,
      8.62,   37.9997,
     8.625,   37.9997,
      8.63,   32.9998,
     8.635,   40.9997,
      8.64,   28.9998,
     8.645,   34.9998,
      8.65,   41.9997,
     8.655,   41.9997,
      8.66,   45.9997,
     8.665,   50.9996,
      8.67,   44.9997,
     8.675,   42.9997,
      8.68,   47.9997,
     8.685,   54.9996,
      8.69,   54.9996,
     8.695,   45.9997,
       8.7,   60.9996,
     8.705,   39.9997,
      8.71,   41.9997,
     8.715,   64.9995,
      8.72,   52.9996,
     8.725,   53.9996,
      8.73,   55.9996,
     8.735,   64.9995,
      8.74,   63.9995,
     8.745,   55.9996,
      8.75,   64.9995,
     8.755,   63.9995,
      8.76,   65.9995,
     8.765,   46.9997,
      8.77,   68.9995,
     8.775,   65.9995,
      8.78,   72.9995,
     8.785,   66.9995,
      8.79,   69.9995,
     8.795,   65.9995,
       8.8,   76.9994,
     8.805,   82.9994,
      8.81,   81.9994,
     8.815,   66.9995,
      8.82,   73.9995,
     8.825,   66.9995,
      8.83,   77.9994,
     8.835,   83.9994,
      8.84,   69.9995,
     8.845,   80.9994,
      8.85,   89.9993,
     8.855,   80.9994,
      8.86,   74.9995,
     8.865,   70.9995,
      8.87,   86.9994,
     8.875,   73.9995,
      8.88,   102.999,
     8.885,   71.9995,
      8.89,   64.9995,
     8.895,   87.9994,
       8.9,   101.999,
     8.905,   79.9994,
      8.91,   76.9994,
     8.915,   83.9994,
      8.92,   92.9993,
     8.925,   92.9993,
      8.93,   81.9994,
     8.935,   87.9993,
      8.94,   89.9993,
     8.945,   84.9994,
      8.95,   66.9995,
     8.955,   74.9994,
      8.96,   59.9996,
     8.965,   85.9994,
      8.97,   76.9994,
     8.975,   79.9994,
      8.98,   80.9994,
     8.985,   93.9993,
      8.99,   86.9994,
     8.995,   76.9994,
         9,   69.9995,
     9.005,   81.9994,
      9.01,   77.9994,
     9.015,   72.9995,
      9.02,   64.9995,
     9.025,   74.9994,
      9.03,   70.9995,
     9.035,   69.9995,
      9.04,   55.9996,
     9.045,   77.9994,
      9.05,   71.9995,
     9.055,   94.9993,
      9.06,   52.9996,
     9.065,   82.9994,
      9.07,   75.9994,
     9.075,   69.9995,
      9.08,   75.9994,
     9.085,   63.9995,
      9.09,   68.9995,
     9.095,   74.9994,
       9.1,   70.9995,
     9.105,   64.9995,
      9.11,   72.9995,
     9.115,   68.9995,
      9.12,   60.9995,
     9.125,   64.9995,
      9.13,   60.9996,
     9.135,   69.9995,
      9.14,   70.9995,
     9.145,   51.9996,
      9.15,   69.9995,
     9.155,   64.9995,
      9.16,   68.9995,
     9.165,   77.9994,
      9.17,   73.9995,
     9.175,   61.9995,
      9.18,   50.9996,
     9.185,   49.9996,
      9.19,   59.9996,
     9.195,   48.9996,
       9.2,   59.9996,
     9.205,   51.9996,
      9.21,   46.9997,
     9.215,   41.9997,
      9.22,   62.9995,
     9.225,   51.9996,
      9.23,   53.9996,
     9.235,   59.9996,
      9.24,   54.9996,
     9.245,   40.9997,
      9.25,   40.9997,
     9.255,   46.9997,
      9.26,   39.9997,
     9.265,   42.9997,
      9.27,   50.9996,
     9.275,   48.9996,
      9.28,   48.9996,
     9.285,   44.9997,
      9.29,   40.9997,
     9.295,   49.9996,
       9.3,   55.9996,
     9.305,   45.9997,
      9.31,   32.9998,
     9.315,   36.9997,
      9.32,   44.9997,
     9.325,   34.9997,
      9.33,   34.9997,
     9.335,   39.9997,
      9.34,   44.9997,
     9.345,   23.9998,
      9.35,   32.9998,
     9.355,   29.9998,
      9.36,   31.9998,
     9.365,   50.9996,
      9.37,   34.9997,
     9.375,   39.9997,
      9.38,   22.9998,
     9.385,   31.9998,
      9.39,   28.9998,
     9.395,   26.9998,
       9.4,   30.9998,
     9.405,   38.9997,
      9.41,   24.9998,
     9.415,   22.9998,
      9.42,   22.9998,
     9.425,   25.9998,
      9.43,   28.9998,
     9.435,   26.9998,
      9.44,   22.9998,
     9.445,   34.9998,
      9.45,   30.9998,
     9.455,   24.9998,
      9.46,   19.9999,
     9.465,   16.9999,
      9.47,   31.9998,
     9.475,   24.9998,
      9.48,   26.9998,
     9.485,   21.9998,
      9.49,   19.9999,
     9.495,   14.9999,
       9.5,   19.9999,
     9.505,   26.9998,
      9.51,   19.9999,
     9.515,   21.9998,
      9.52,   12.9999,
     9.525,   16.9999,
      9.53,    9.9999,
     9.535,   16.9999,
      9.54,   18.9999,
     9.545,   23.9998,
      9.55,   22.9998,
     9.555,   17.9999,
      9.56,   16.9999,
     9.565,   18.9999,
      9.57,   18.9999,
     9.575,   23.9998,
      9.58,   17.9999,
     9.585,   18.9999,
      9.59,   17.9999,
     9.595,   25.9998,
       9.6,   14.9999,
     9.605,   20.9999,
      9.61,   16.9999,
     9.615,   18.9999,
      9.62,   20.9999,
     9.625,   18.9999,
      9.63,   23.9998,
     9.635,   22.9998,
      9.64,   26.9998,
     9.645,   15.9999,
      9.65,   21.9998,
     9.655,   16.9999,
      9.66,   10.9999,
     9.665,   29.9998,
      9.67,   25.9998,
     9.675,   14.9999,
      9.68,   13.9999,
     9.685,   23.9998,
      9.69,   14.9999,
     9.695,   22.9998,
       9.7,   21.9998,
     9.705,   11.9999,
      9.71,   23.9998,
     9.715,   18.9999,
      9.72,   17.9999,
     9.725,   18.9999,
      9.73,   19.9999,
     9.735,   12.9999,
      9.74,   21.9998,
     9.745,   22.9998,
      9.75,   18.9999,
     9.755,   22.9998,
      9.76,   32.9998,
     9.765,   24.9998,
      9.77,   22.9998,
     9.775,   34.9998,
      9.78,   21.9998,
     9.785,   26.9998,
      9.79,   22.9998,
     9.795,   25.9998,
       9.8,   31.9998,
     9.805,   25.9998,
      9.81,   27.9998,
     9.815,   21.9998,
      9.82,   23.9998,
     9.825,   24.9998,
      9.83,   25.9998,
     9.835,   13.9999,
      9.84,   32.9998,
     9.845,   22.9998,
      9.85,   26.9998,
     9.855,   36.9997,
      9.86,   37.9997,
     9.865,   23.9998,
      9.87,   21.9998,
     9.875,   26.9998,
      9.88,   31.9998,
     9.885,   36.9997,
      9.89,   29.9998,
     9.895,   34.9997,
       9.9,   29.9998,
     9.905,   34.9997,
      9.91,   22.9998,
     9.915,   23.9998,
      9.92,   41.9997,
     9.925,   26.9998,
      9.93,   31.9998,
     9.935,   38.9997,
      9.94,   32.9998,
     9.945,   29.9998,
      9.95,   27.9998,
     9.955,   29.9998,
      9.96,   27.9998,
     9.965,   44.9997,
      9.97,   34.9997,
     9.975,   35.9997,
      9.98,   32.9998,
     9.985,   38.9997,
      9.99,   28.9998,
     9.995,   34.9997,
        10,   26.9998,
